,x
1,0.074550129
2,0.055698372
3,0.084832905
4,0.061696658
5,0.042844901
6,0.092544987
7,0.072836332
8,0.091688089
9,0.120822622
10,0.092544987
11,0.101113967
12,0.162810626
13,0.167095116
14,0.176520994
15,0.206512425
16,0.231362468
17,0.167952014
18,0.144815767
19,0.139674379
20,0.124250214
21,0.159383033
22,0.142245073
23,0.139674379
24,0.179948586
25,0.194515853
26,0.201371037
27,0.245929734
28,0.252784919
29,0.258783205
30,0.301628106
31,0.309340189
32,0.303341902
33,0.336760925
34,0.329048843
35,0.312767781
36,0.329905741
37,0.333333333
38,0.313624679
39,0.344473008
40,0.346186804
41,0.335904027
42,0.349614396
43,0.345329906
44,0.341902314
45,0.358183376
46,0.359040274
47,0.340188518
48,0.355612682
49,0.363324764
50,0.3479006
51,0.371036847
52,0.370179949
53,0.36075407
54,0.373607541
55,0.375321337
56,0.35646958
57,0.372750643
58,0.381319623
59,0.369323051
60,0.378748929
61,0.379605827
62,0.363324764
63,0.370179949
64,0.391602399
65,0.364181662
66,0.378748929
67,0.385604113
68,0.359897172
69,0.377892031
70,0.377892031
71,0.36503856
72,0.380462725
73,0.387317909
74,0.371893745
75,0.381319623
76,0.405312768
77,0.377892031
78,0.386461011
79,0.40445587
80,0.387317909
81,0.399314482
82,0.442159383
83,0.415595544
84,0.419880034
85,0.449871465
86,0.463581834
87,0.484147386
88,0.481576692
89,0.491859469
90,0.488431877
91,0.401885176
92,0.354755784
93,0.357326478
94,0.369323051
95,0.346186804
96,0.349614396
97,0.358183376
98,0.34361611
99,0.345329906
100,0.363324764
101,0.340188518
102,0.335047129
103,0.35218509
104,0.335047129
105,0.3479006
106,0.359040274
107,0.341045416
108,0.33933162
109,0.357326478
110,0.353898886
111,0.346186804
112,0.362467866
113,0.351328192
114,0.353041988
115,0.36503856
116,0.35646958
117,0.349614396
118,0.357326478
119,0.227934876
120,0.269065981
121,0.705227078
122,1.334190231
123,1.371893745
124,0.942587832
125,0.658954584
126,0.480719794
127,0.384747215
128,0.305912596
129,0.24764353
130,0.257926307
131,0.236503856
132,0.22193659
133,0.232219366
134,0.221079692
135,0.205655527
136,0.221079692
137,0.217652099
138,0.207369323
139,0.222793488
140,0.220222793
141,0.203941731
142,0.236503856
143,0.23479006
144,0.216795201
145,0.241645244
146,0.241645244
147,0.23479006
148,0.244215938
149,0.240788346
150,0.232219366
151,0.245072836
152,0.241645244
153,0.233933162
154,0.264781491
155,0.286203942
156,0.284490146
157,0.346186804
158,0.347043702
159,0.335904027
160,0.378748929
161,0.407026564
162,0.413881748
163,0.449871465
164,0.470437018
165,0.470437018
166,0.402742074
167,0.378748929
168,0.3479006
169,0.382176521
170,0.369323051
171,0.349614396
172,0.364181662
173,0.373607541
174,0.358183376
175,0.362467866
176,0.379605827
177,0.344473008
178,0.365895458
179,0.376178235
180,0.351328192
181,0.371893745
182,0.371893745
183,0.347043702
184,0.366752356
185,0.384747215
186,0.348757498
187,0.372750643
188,0.383890317
189,0.367609254
190,0.382176521
191,0.391602399
192,0.378748929
193,0.384747215
194,0.383033419
195,0.387317909
196,0.375321337
197,0.405312768
198,0.381319623
199,0.40017138
200,0.424164524
201,0.386461011
202,0.389031705
203,0.425021422
204,0.398457584
205,0.40017138
206,0.424164524
207,0.413881748
208,0.402742074
209,0.426735219
210,0.395886889
211,0.410454156
212,0.438731791
213,0.401028278
214,0.407026564
215,0.428449015
216,0.402742074
217,0.40874036
218,0.427592117
219,0.401885176
220,0.418166238
221,0.428449015
222,0.42159383
223,0.410454156
224,0.433590403
225,0.407026564
226,0.409597258
227,0.454155955
228,0.416452442
229,0.444730077
230,0.447300771
231,0.436161097
232,0.448157669
233,0.493573265
234,0.490145673
235,0.491859469
236,0.550985433
237,0.504712939
238,0.412167952
239,0.431019709
240,0.393316195
241,0.380462725
242,0.396743787
243,0.386461011
244,0.386461011
245,0.411311054
246,0.398457584
247,0.383890317
248,0.412167952
249,0.396743787
250,0.273350471
251,0.269922879
252,0.623821765
253,1.245072836
254,1.583547558
255,1.058269066
256,0.748928877
257,0.580976864
258,0.457583548
259,0.35646958
260,0.330762639
261,0.310197087
262,0.296486718
263,0.305912596
264,0.293916024
265,0.272493573
266,0.311910883
267,0.28706084
268,0.269065981
269,0.296486718
270,0.285347044
271,0.263924593
272,0.286203942
273,0.299057412
274,0.273350471
275,0.294772922
276,0.3041988
277,0.292202228
278,0.294772922
279,0.294772922
280,0.280205656
281,0.3041988
282,0.300771208
283,0.29991431
284,0.315338475
285,0.302485004
286,0.299057412
287,0.321336761
288,0.344473008
289,0.330762639
290,0.353898886
291,0.365895458
292,0.361610968
293,0.388174807
294,0.395886889
295,0.378748929
296,0.384747215
297,0.389031705
298,0.36503856
299,0.372750643
300,0.383890317
301,0.36503856
302,0.368466153
303,0.395886889
304,0.374464439
305,0.355612682
306,0.373607541
307,0.372750643
308,0.387317909
309,0.398457584
310,0.411311054
311,0.432733505
312,0.435304199
313,0.333333333
314,0.330762639
315,0.329048843
316,0.309340189
317,0.316195373
318,0.327335047
319,0.303341902
320,0.317052271
321,0.329048843
322,0.30848329
323,0.319622965
324,0.327335047
325,0.311910883
326,0.316195373
327,0.325621251
328,0.306769494
329,0.321336761
330,0.325621251
331,0.306769494
332,0.305055698
333,0.323050557
334,0.297343616
335,0.293916024
336,0.315338475
337,0.296486718
338,0.29991431
339,0.306769494
340,0.29562982
341,0.293059126
342,0.3041988
343,0.294772922
344,0.289631534
345,0.305055698
346,0.281919452
347,0.279348757
348,0.296486718
349,0.28277635
350,0.28277635
351,0.298200514
352,0.279348757
353,0.272493573
354,0.284490146
355,0.270779777
356,0.267352185
357,0.272493573
358,0.251928021
359,0.244215938
360,0.252784919
361,0.240788346
362,0.22193659
363,0.228791774
364,0.214224507
365,0.193658955
366,0.209083119
367,0.187660668
368,0.171379606
369,0.179948586
370,0.159383033
371,0.135389889
372,0.149100257
373,0.119965724
374,0.120822622
375,0.12596401
376,0.093401885
377,0.095972579
378,0.114824336
379,0.1302485
380,0.11311054
381,0.095115681
382,-0.002570694
383,0.066838046
384,0.525278492
385,1.075407027
386,0.775492716
387,0.453299057
388,0.199657241
389,0.035132819
390,-0.077977721
391,-0.149100257
392,-0.208226221
393,-0.218508997
394,-0.232219366
395,-0.261353899
396,-0.257069409
397,-0.276778063
398,-0.307626392
399,-0.29562982
400,-0.307626392
401,-0.330762639
402,-0.321336761
403,-0.323050557
404,-0.335047129
405,-0.324764353
406,-0.329905741
407,-0.35218509
408,-0.340188518
409,-0.357326478
410,-0.389888603
411,-0.375321337
412,-0.386461011
413,-0.427592117
414,-0.41302485
415,-0.413881748
416,-0.431019709
417,-0.418166238
418,-0.414738646
419,-0.424164524
420,-0.418166238
421,-0.380462725
422,-0.399314482
423,-0.371893745
424,-0.362467866
425,-0.384747215
426,-0.371893745
427,-0.365895458
428,-0.40445587
429,-0.395029991
430,-0.402742074
431,-0.438731791
432,-0.447300771
433,-0.443873179
434,-0.479005998
435,-0.48243359
436,-0.47386461
437,-0.496143959
438,-0.488431877
439,-0.481576692
440,-0.509854327
441,-0.502999143
442,-0.497857755
443,-0.523564696
444,-0.51756641
445,-0.497000857
446,-0.52613539
447,-0.524421594
448,-0.497000857
449,-0.499571551
450,-0.519280206
451,-0.494430163
452,-0.497857755
453,-0.471293916
454,-0.455012853
455,-0.45672665
456,-0.428449015
457,-0.459297344
458,-0.549271637
459,-0.571550985
460,-0.529562982
461,-0.564695801
462,-0.570694087
463,-0.556126821
464,-0.583547558
465,-0.57412168
466,-0.560411311
467,-0.576692374
468,-0.581833762
469,-0.562982005
470,-0.58697515
471,-0.59125964
472,-0.580119966
473,-0.59125964
474,-0.597257926
475,-0.575835476
476,-0.594687232
477,-0.598971722
478,-0.571550985
479,-0.603256213
480,-0.606683805
481,-0.596401028
482,-0.620394173
483,-0.632390746
484,-0.628106255
485,-0.65638389
486,-0.66066838
487,-0.640102828
488,-0.680377035
489,-0.696658098
490,-0.685518423
491,-0.711225364
492,-0.721508141
493,-0.713796058
494,-0.742073693
495,-0.762639246
496,-0.76092545
497,-0.782347901
498,-0.810625536
499,-0.81319623
500,-0.842330763
501,-0.877463582
502,-0.880034276
503,-0.905741217
504,-0.924592973
505,-0.915167095
506,-0.94344473
507,-0.971722365
508,-0.961439589
509,-0.980291345
510,-1.001713796
511,-0.999143102
512,-1.023993145
513,-1.157669237
514,-1.137103685
515,-0.763496144
516,-0.167095116
517,-0.046272494
518,-0.510711225
519,-0.790059983
520,-0.931448158
521,-1.075407027
522,-1.176520994
523,-1.192802057
524,-1.203084833
525,-1.208226221
526,-1.190231362
527,-1.16966581
528,-1.215081405
529,-1.279348757
530,-1.293916024
531,-1.318766067
532,-1.298200514
533,-1.298200514
534,-1.305055698
535,-1.279348757
536,-1.268209083
537,-1.263924593
538,-1.224507284
539,-1.204798629
540,-1.209083119
541,-1.166238218
542,-1.151670951
543,-1.156812339
544,-1.119108826
545,-1.092544987
546,-1.089117395
547,-1.051413882
548,-1.013710368
549,-1.003427592
550,-0.946015424
551,-0.904884319
552,-0.8697515
553,-0.808054841
554,-0.770351328
555,-0.791773779
556,-0.747215081
557,-0.706083976
558,-0.702656384
559,-0.648671808
560,-0.619537275
561,-0.626392459
562,-0.590402742
563,-0.568980291
564,-0.542416452
565,-0.511568123
566,-0.45672665
567,-0.450728363
568,-0.414738646
569,-0.374464439
570,-0.35646958
571,-0.317909169
572,-0.289631534
573,-0.283633248
574,-0.236503856
575,-0.200514139
576,-0.185946872
577,-0.157669237
578,-0.119108826
579,-0.101970865
580,-0.074550129
581,-0.035132819
582,-0.023136247
583,0.005141388
584,0.054841474
585,0.06083976
586,0.078834619
587,0.122536418
588,0.12596401
589,0.150814053
590,0.190231362
591,0.225364182
592,0.235646958
593,0.293059126
594,0.318766067
595,0.330762639
596,0.383890317
597,0.410454156
598,0.45672665
599,0.506426735
600,0.527849186
601,0.577549272
602,0.562125107
603,0.502999143
604,0.518423308
605,0.550985433
606,0.552699229
607,0.565552699
608,0.600685518
609,0.604113111
610,0.59982862
611,0.645244216
612,0.652956298
613,0.654670094
614,0.686375321
615,0.686375321
616,0.70865467
617,0.735218509
618,0.740359897
619,0.738646101
620,0.774635818
621,0.777206512
622,0.778920308
623,0.807197943
624,0.820908312
625,0.824335904
626,0.844901457
627,0.857754927
628,0.860325621
629,0.889460154
630,0.892887746
631,0.885175664
632,0.904027421
633,0.911739503
634,0.897172237
635,0.925449871
636,0.910882605
637,0.899742931
638,0.925449871
639,0.921165381
640,0.916880891
641,0.940017138
642,0.946015424
643,0.928020566
644,0.854327335
645,0.811482434
646,1.1302485
647,1.629820051
648,1.680377035
649,1.546700943
650,1.286203942
651,1.103684662
652,0.970865467
653,0.907455013
654,0.856041131
655,0.827763496
656,0.832904884
657,0.839760069
658,0.819194516
659,0.838903171
660,0.851756641
661,0.841473865
662,0.861182519
663,0.880891174
664,0.868037704
665,0.907455013
666,0.929734362
667,0.923736075
668,0.941730934
669,0.976006855
670,0.967437875
671,1.002570694
672,1.027420737
673,1.020565553
674,1.055698372
675,1.010282776
676,0.928020566
677,0.936589546
678,0.940017138
679,0.914310197
680,0.937446444
681,0.953727506
682,0.952870608
683,0.972579263
684,0.99571551
685,0.988860326
686,0.994001714
687,1.028277635
688,1
689,0.996572408
690,1.005141388
691,0.989717224
692,0.983718937
693,0.98714653
694,0.953727506
695,0.948586118
696,0.941730934
697,0.913453299
698,0.906598115
699,0.928877464
700,0.910025707
701,0.918594687
702,0.929734362
703,0.901456727
704,0.897172237
705,0.917737789
706,0.892030848
707,0.892887746
708,0.908311911
709,0.872322194
710,0.880891174
711,0.903170523
712,0.880034276
713,0.862896315
714,0.880034276
715,0.856041131
716,0.854327335
717,0.871465296
718,0.838903171
719,0.823479006
720,0.853470437
721,0.824335904
722,0.811482434
723,0.83033419
724,0.803770351
725,0.793487575
726,0.808054841
727,0.783204799
728,0.767780634
729,0.776349614
730,0.763496144
731,0.749785775
732,0.766923736
733,0.749785775
734,0.738646101
735,0.763496144
736,0.745501285
737,0.740359897
738,0.746358183
739,0.738646101
740,0.734361611
741,0.720651243
742,0.716366752
743,0.716366752
744,0.748071979
745,0.734361611
746,0.721508141
747,0.77377892
748,0.707797772
749,0.635818338
750,0.63496144
751,0.615252785
752,0.603256213
753,0.610968295
754,0.597257926
755,0.57412168
756,0.589545844
757,0.572407883
758,0.551842331
759,0.570694087
760,0.559554413
761,0.54327335
762,0.550985433
763,0.544987147
764,0.52613539
765,0.542416452
766,0.53041988
767,0.513281919
768,0.522707798
769,0.510711225
770,0.490145673
771,0.504712939
772,0.493573265
773,0.471293916
774,0.491002571
775,0.433590403
776,0.29562982
777,0.525278492
778,1.031705227
779,1.544987147
780,1.222793488
781,0.917737789
782,0.649528706
783,0.526992288
784,0.425021422
785,0.353898886
786,0.335904027
787,0.321336761
788,0.287917738
789,0.294772922
790,0.288774636
791,0.263067695
792,0.269922879
793,0.260497001
794,0.233076264
795,0.249357326
796,0.252784919
797,0.233076264
798,0.24764353
799,0.24764353
800,0.232219366
801,0.241645244
802,0.257069409
803,0.237360754
804,0.241645244
805,0.233933162
806,0.203084833
807,0.209940017
808,0.214224507
809,0.201371037
810,0.207369323
811,0.22193659
812,0.198800343
813,0.246786632
814,0.257926307
815,0.242502142
816,0.280205656
817,0.316195373
818,0.324764353
819,0.333333333
820,0.36503856
821,0.350471294
822,0.258783205
823,0.238217652
824,0.205655527
825,0.189374464
826,0.195372751
827,0.172236504
828,0.159383033
829,0.164524422
830,0.143958869
831,0.127677806
832,0.125107112
833,0.10454156
834,0.093401885
835,0.101970865
836,0.079691517
837,0.081405313
838,0.090831191
839,0.077977721
840,0.070265638
841,0.087403599
842,0.063410454
843,0.063410454
844,0.06940874
845,0.057412168
846,0.05227078
847,0.054841474
848,0.04798629
849,0.039417309
850,0.058269066
851,0.039417309
852,0.026563839
853,0.042844901
854,0.028277635
855,0.020565553
856,0.035132819
857,0.023993145
858,-0.003427592
859,0.024850043
860,0.016281063
861,0.011996572
862,0.017994859
863,0.013710368
864,0
865,0.010282776
866,0.003427592
867,-0.010282776
868,0.007712082
869,0.000856898
870,-0.020565553
871,-0.000856898
872,-0.011996572
873,-0.033419023
874,-0.017994859
875,-0.022279349
876,-0.046272494
877,-0.031705227
878,-0.034275921
879,-0.050556984
880,-0.025706941
881,-0.035989717
882,-0.045415596
883,-0.023993145
884,-0.023993145
885,-0.023136247
886,-0.016281063
887,-0.033419023
888,-0.026563839
889,0.00856898
890,0.030848329
891,0.027420737
892,0.061696658
893,0.086546701
894,-0.029134533
895,-0.048843188
896,-0.05227078
897,-0.070265638
898,-0.059125964
899,-0.05227078
900,-0.082262211
901,-0.057412168
902,-0.053984576
903,-0.06940874
904,-0.061696658
905,-0.05227078
906,-0.06940874
907,-0.162810626
908,-0.172236504
909,0.154241645
910,0.793487575
911,1.107969152
912,0.571550985
913,0.311053985
914,0.123393316
915,-0.005998286
916,-0.084832905
917,-0.123393316
918,-0.152527849
919,-0.149100257
920,-0.143101971
921,-0.162810626
922,-0.159383033
923,-0.144815767
924,-0.170522708
925,-0.143101971
926,-0.141388175
927,-0.154241645
928,-0.142245073
929,-0.124250214
930,-0.138817481
931,-0.12596401
932,-0.107112254
933,-0.125107112
934,-0.11739503
935,-0.094258783
936,-0.115681234
937,-0.103684662
938,-0.095115681
939,-0.114824336
940,-0.110539846
941,-0.088260497
942,-0.110539846
943,-0.096829477
944,-0.067694944
945,-0.076263925
946,-0.053984576
947,-0.015424165
948,-0.021422451
949,-0.007712082
950,0.030848329
951,0.016281063
952,0.020565553
953,0.046272494
954,0.039417309
955,0.032562125
956,0.049700086
957,0.041131105
958,0.029134533
959,0.079691517
960,0.059982862
961,0.037703513
962,0.059982862
963,0.055698372
964,0.071122536
965,0.105398458
966,0.101970865
967,0.122536418
968,0.091688089
969,0.010282776
970,0.001713796
971,0.020565553
972,-0.013710368
973,-0.018851757
974,-0.001713796
975,-0.014567266
976,-0.022279349
977,-0.006855184
978,-0.018851757
979,-0.026563839
980,-0.005998286
981,-0.019708655
982,-0.027420737
983,0.000856898
984,-0.022279349
985,-0.027420737
986,-0.003427592
987,-0.011996572
988,-0.015424165
989,0.000856898
990,-0.015424165
991,-0.032562125
992,-0.01285347
993,-0.017994859
994,-0.023136247
995,0.014567266
996,0.005998286
997,-0.034275921
998,-0.021422451
999,-0.029991431
1000,-0.045415596
1001,-0.029991431
1002,-0.027420737
1003,-0.050556984
1004,-0.028277635
1005,-0.034275921
1006,-0.04798629
1007,-0.031705227
1008,-0.035132819
1009,-0.050556984
1010,-0.027420737
1011,-0.040274207
1012,-0.066838046
1013,-0.048843188
1014,-0.05227078
1015,-0.055698372
1016,-0.037703513
1017,-0.041988003
1018,-0.053127678
1019,-0.04798629
1020,-0.042844901
1021,-0.055698372
1022,-0.041988003
1023,-0.042844901
1024,-0.059982862
1025,-0.049700086
1026,-0.046272494
1027,-0.058269066
1028,-0.040274207
1029,-0.025706941
1030,-0.039417309
1031,-0.005141388
1032,-0.023993145
1033,-0.039417309
1034,-0.005141388
1035,0.007712082
1036,0.00428449
1037,0.034275921
1038,0.005141388
1039,-0.129391602
1040,0.036846615
1041,0.57840617
1042,1.094258783
1043,0.659811482
1044,0.36075407
1045,0.11311054
1046,0.011139674
1047,-0.096829477
1048,-0.16966581
1049,-0.185089974
1050,-0.185089974
1051,-0.197943445
1052,-0.197943445
1053,-0.197086547
1054,-0.216795201
1055,-0.205655527
1056,-0.197086547
1057,-0.200514139
1058,-0.187660668
1059,-0.179948586
1060,-0.192802057
1061,-0.179091688
1062,-0.156812339
1063,-0.170522708
1064,-0.159383033
1065,-0.144815767
1066,-0.148243359
1067,-0.152527849
1068,-0.131105398
1069,-0.144815767
1070,-0.142245073
1071,-0.136246787
1072,-0.141388175
1073,-0.134532991
1074,-0.109682948
1075,-0.115681234
1076,-0.092544987
1077,-0.065981148
1078,-0.06512425
1079,-0.039417309
1080,-0.010282776
1081,-0.00856898
1082,-0.013710368
1083,0.009425878
1084,-0.001713796
1085,0.000856898
1086,0.018851757
1087,0.002570694
1088,-0.000856898
1089,-0.001713796
1090,-0.006855184
1091,-0.017994859
1092,0.001713796
1093,-0.007712082
1094,-0.011996572
1095,0.005998286
1096,0
1097,-0.01285347
1098,0.00856898
1099,-0.002570694
1100,-0.002570694
1101,0.011996572
1102,0.016281063
1103,0.010282776
1104,0.017137961
1105,0.042844901
1106,0.01285347
1107,0.025706941
1108,0.048843188
1109,0.048843188
1110,0.088260497
1111,0.097686375
1112,0.11739503
1113,0.1302485
1114,0.036846615
1115,0.014567266
1116,0.032562125
1117,0.020565553
1118,0.00856898
1119,0.026563839
1120,0.018851757
1121,0.00428449
1122,0.026563839
1123,0.022279349
1124,0.002570694
1125,0.022279349
1126,0.028277635
1127,0.006855184
1128,0.025706941
1129,0.032562125
1130,0.010282776
1131,0.035132819
1132,0.034275921
1133,0.022279349
1134,0.041131105
1135,0.044558698
1136,0.027420737
1137,0.048843188
1138,0.047129392
1139,0.032562125
1140,0.055698372
1141,0.05655527
1142,0.041131105
1143,0.059125964
1144,0.068551842
1145,0.047129392
1146,0.065981148
1147,0.083119109
1148,0.059982862
1149,0.079691517
1150,0.081405313
1151,0.062553556
1152,0.073693231
1153,0.083976007
1154,0.068551842
1155,0.084832905
1156,0.090831191
1157,0.077977721
1158,0.086546701
1159,0.101113967
1160,0.083119109
1161,0.096829477
1162,0.109682948
1163,0.083119109
1164,0.084832905
1165,0.102827763
1166,0.086546701
1167,0.095115681
1168,0.103684662
1169,0.072836332
1170,-0.00856898
1171,-0.035132819
1172,0.329048843
1173,0.954584404
1174,1.233933162
1175,0.747215081
1176,0.485861183
1177,0.278491859
1178,0.156812339
1179,0.101113967
1180,0.068551842
1181,0.046272494
1182,0.053984576
1183,0.082262211
1184,0.011996572
1185,-0.057412168
1186,-0.041988003
1187,-0.068551842
1188,-0.071122536
1189,-0.051413882
1190,-0.068551842
1191,-0.06512425
1192,-0.04798629
1193,-0.061696658
1194,-0.05227078
1195,-0.025706941
1196,-0.045415596
1197,-0.041988003
1198,-0.026563839
1199,-0.04798629
1200,-0.049700086
1201,-0.028277635
1202,-0.04798629
1203,-0.048843188
1204,-0.035132819
1205,-0.043701799
1206,-0.032562125
1207,-0.00856898
1208,-0.005141388
1209,0.023136247
1210,0.059125964
1211,0.065981148
1212,0.074550129
1213,0.099400171
1214,0.092544987
1215,0.092544987
1216,0.115681234
1217,0.090831191
1218,0.068551842
1219,0.090831191
1220,0.068551842
1221,0.058269066
1222,0.062553556
1223,0.042844901
1224,0.036846615
1225,0.05655527
1226,0.050556984
1227,0.040274207
1228,0.058269066
1229,0.044558698
1230,0.041988003
1231,0.059982862
1232,0.054841474
1233,0.043701799
1234,0.065981148
1235,0.053984576
1236,0.038560411
1237,0.06512425
1238,0.048843188
1239,0.050556984
1240,0.066838046
1241,0.061696658
1242,0.048843188
1243,0.065981148
1244,0.058269066
1245,0.047129392
1246,0.064267352
1247,0.065981148
1248,0.044558698
1249,0.079691517
1250,0.086546701
1251,0.05227078
1252,0.077120823
1253,0.095972579
1254,0.099400171
1255,0.127677806
1256,0.138817481
1257,0.159383033
1258,0.124250214
1259,0.050556984
1260,0.041131105
1261,0.043701799
1262,0.044558698
1263,0.036846615
1264,0.045415596
1265,0.053127678
1266,0.035132819
1267,0.053984576
1268,0.058269066
1269,0.042844901
1270,0.065981148
1271,0.062553556
1272,0.05227078
1273,0.072836332
1274,0.075407027
1275,0.071979434
1276,0.076263925
1277,0.083976007
1278,0.067694944
1279,0.080548415
1280,0.094258783
1281,0.077120823
1282,0.089974293
1283,0.097686375
1284,0.087403599
1285,0.086546701
1286,0.109682948
1287,0.095972579
1288,0.105398458
1289,0.122536418
1290,0.103684662
1291,0.107969152
1292,0.114824336
1293,0.105398458
1294,0.120822622
1295,0.131962296
1296,0.112253642
1297,0.124250214
1298,0.134532991
1299,0.111396744
1300,0.127677806
1301,0.071122536
1302,-0.028277635
1303,0.272493573
1304,0.857754927
1305,1.277634961
1306,0.784918595
1307,0.53041988
1308,0.29991431
1309,0.184233076
1310,0.091688089
1311,0.017994859
1312,0.001713796
1313,0.006855184
1314,-0.013710368
1315,-0.01285347
1316,0.00856898
1317,-0.003427592
1318,-0.005998286
1319,0.01285347
1320,0.01285347
1321,0.031705227
1322,0.021422451
1323,0.029991431
1324,0.04798629
1325,0.088260497
1326,0.089117395
1327,0.106255356
1328,0.151670951
1329,0.073693231
1330,0.021422451
1331,0.031705227
1332,0.018851757
1333,0.01285347
1334,0.021422451
1335,0.010282776
1336,0.011139674
1337,0.044558698
1338,0.04798629
1339,0.055698372
1340,0.092544987
1341,0.095115681
1342,0.102827763
1343,0.143101971
1344,0.139674379
1345,0.137960583
1346,0.154241645
1347,0.149957155
1348,0.133676093
1349,0.148243359
1350,0.139674379
1351,0.124250214
1352,0.141388175
1353,0.144815767
1354,0.125107112
1355,0.146529563
1356,0.137103685
1357,0.122536418
1358,0.140531277
1359,0.139674379
1360,0.120822622
1361,0.139674379
1362,0.134532991
1363,0.119108826
1364,0.143101971
1365,0.148243359
1366,0.129391602
1367,0.143101971
1368,0.140531277
1369,0.1302485
1370,0.144815767
1371,0.142245073
1372,0.123393316
1373,0.131962296
1374,0.133676093
1375,0.119108826
1376,0.138817481
1377,0.144815767
1378,0.12167952
1379,0.133676093
1380,0.135389889
1381,0.110539846
1382,0.1302485
1383,0.140531277
1384,0.111396744
1385,0.122536418
1386,0.129391602
1387,0.114824336
1388,0.122536418
1389,0.131105398
1390,0.10454156
1391,0.123393316
1392,0.119108826
1393,0.10454156
1394,0.139674379
1395,0.129391602
1396,0.111396744
1397,0.136246787
1398,0.161953728
1399,0.157669237
1400,0.185089974
1401,0.220222793
1402,0.166238218
1403,0.095972579
1404,0.095972579
1405,0.071122536
1406,0.071979434
1407,0.080548415
1408,0.058269066
1409,0.062553556
1410,0.076263925
1411,0.059125964
1412,0.068551842
1413,0.078834619
1414,0.05655527
1415,0.067694944
1416,0.075407027
1417,0.055698372
1418,0.061696658
1419,0.072836332
1420,0.049700086
1421,0.053127678
1422,0.066838046
1423,0.049700086
1424,0.053984576
1425,0.068551842
1426,0.050556984
1427,0.059125964
1428,0.070265638
1429,0.053984576
1430,0.059982862
1431,0.019708655
1432,-0.089974293
1433,0.149957155
1434,0.687232219
1435,1.18680377
1436,0.764353042
1437,0.502999143
1438,0.263067695
1439,0.146529563
1440,0.05655527
1441,-0.020565553
1442,-0.029134533
1443,-0.027420737
1444,-0.048843188
1445,-0.054841474
1446,-0.035132819
1447,-0.057412168
1448,-0.05655527
1449,-0.041131105
1450,-0.053127678
1451,-0.05227078
1452,-0.035132819
1453,-0.047129392
1454,-0.037703513
1455,-0.017994859
1456,-0.025706941
1457,-0.025706941
1458,0.001713796
1459,-0.002570694
1460,-0.007712082
1461,0.006855184
1462,-0.00428449
1463,-0.010282776
1464,0.00428449
1465,0
1466,-0.003427592
1467,0.041131105
1468,0.043701799
1469,0.031705227
1470,0.071979434
1471,0.088260497
1472,0.120822622
1473,0.158526135
1474,0.174807198
1475,0.198800343
1476,0.179091688
1477,0.116538132
1478,0.103684662
1479,0.115681234
1480,0.103684662
1481,0.088260497
1482,0.102827763
1483,0.097686375
1484,0.089974293
1485,0.106255356
1486,0.100257069
1487,0.089117395
1488,0.109682948
1489,0.101113967
1490,0.084832905
1491,0.107969152
1492,0.103684662
1493,0.084832905
1494,0.098543273
1495,0.100257069
1496,0.092544987
1497,0.114824336
1498,0.109682948
1499,0.094258783
1500,0.119108826
1501,0.12167952
1502,0.106255356
1503,0.120822622
1504,0.123393316
1505,0.119108826
1506,0.134532991
1507,0.132819195
1508,0.12167952
1509,0.145672665
1510,0.143958869
1511,0.133676093
1512,0.152527849
1513,0.156812339
1514,0.143101971
1515,0.161096829
1516,0.160239931
1517,0.145672665
1518,0.161953728
1519,0.164524422
1520,0.155955441
1521,0.170522708
1522,0.17823479
1523,0.163667524
1524,0.173093402
1525,0.172236504
1526,0.155955441
1527,0.177377892
1528,0.177377892
1529,0.162810626
1530,0.16966581
1531,0.180805484
1532,0.166238218
1533,0.177377892
1534,0.181662382
1535,0.171379606
1536,0.181662382
1537,0.18251928
1538,0.190231362
1539,0.206512425
1540,0.197943445
1541,0.203084833
1542,0.231362468
1543,0.256212511
1544,0.250214225
1545,0.269922879
1546,0.30848329
1547,0.221079692
1548,0.172236504
1549,0.177377892
1550,0.157669237
1551,0.159383033
1552,0.166238218
1553,0.156812339
1554,0.161096829
1555,0.168808912
1556,0.159383033
1557,0.167095116
1558,0.173093402
1559,0.161953728
1560,0.164524422
1561,0.160239931
1562,0.023136247
1563,0.073693231
1564,0.529562982
1565,1.155955441
1566,1.209083119
1567,0.775492716
1568,0.486718081
1569,0.297343616
1570,0.191945159
1571,0.10882605
1572,0.062553556
1573,0.066838046
1574,0.049700086
1575,0.048843188
1576,0.050556984
1577,0.041988003
1578,0.035132819
1579,0.050556984
1580,0.041988003
1581,0.033419023
1582,0.055698372
1583,0.04798629
1584,0.046272494
1585,0.065981148
1586,0.061696658
1587,0.061696658
1588,0.081405313
1589,0.070265638
1590,0.071122536
1591,0.081405313
1592,0.075407027
1593,0.061696658
1594,0.062553556
